 Time (s)Height (m)Velocity (m/s)
   0.00000000       10.0000000       0.00000000    
   1.00000005E-03   9.99999046      -9.81000066E-03
   2.00000009E-03   9.99997044      -1.96200013E-02
   3.00000003E-03   9.99994087      -2.94300020E-02
   4.00000019E-03   9.99990177      -3.92400026E-02
   5.00000035E-03   9.99985313      -4.90500033E-02
   6.00000005E-03   9.99979401      -5.88600039E-02
   7.00000022E-03   9.99972534      -6.86700046E-02
   8.00000038E-03   9.99964714      -7.84800053E-02
   9.00000054E-03   9.99955845      -8.82900059E-02
   1.00000007E-02   9.99946022      -9.81000066E-02
   1.10000009E-02   9.99935246     -0.107910007    
   1.20000001E-02   9.99923515     -0.117720008    
   1.30000003E-02   9.99910736     -0.127530009    
   1.40000004E-02   9.99897003     -0.137340009    
   1.50000006E-02   9.99882317     -0.147150010    
   1.60000008E-02   9.99866581     -0.156960011    
   1.70000009E-02   9.99849892     -0.166770011    
   1.80000011E-02   9.99832249     -0.176580012    
   1.90000013E-02   9.99813652     -0.186390013    
   2.00000014E-02   9.99794006     -0.196200013    
   2.10000016E-02   9.99773407     -0.206010014    
   2.20000017E-02   9.99751854     -0.215820014    
   2.30000019E-02   9.99729252     -0.225630015    
   2.40000002E-02   9.99705696     -0.235440016    
   2.50000004E-02   9.99681187     -0.245250016    
   2.60000005E-02   9.99655724     -0.255060017    
   2.70000007E-02   9.99629211     -0.264870018    
   2.80000009E-02   9.99601746     -0.274680018    
   2.90000010E-02   9.99573326     -0.284490019    
   3.00000012E-02   9.99543858     -0.294300020    
   3.10000014E-02   9.99513435     -0.304110020    
   3.20000015E-02   9.99482059     -0.313920021    
   3.29999998E-02   9.99449730     -0.323730022    
   3.40000018E-02   9.99416351     -0.333540022    
   3.50000001E-02   9.99382019     -0.343350023    
   3.60000022E-02   9.99346733     -0.353160024    
   3.70000005E-02   9.99310398     -0.362970024    
   3.80000025E-02   9.99273109     -0.372780025    
   3.90000008E-02   9.99234867     -0.382590026    
   4.00000028E-02   9.99195671     -0.392400026    
   4.10000011E-02   9.99155426     -0.402210027    
   4.20000032E-02   9.99114227     -0.412020028    
   4.30000015E-02   9.99072075     -0.421830028    
   4.40000035E-02   9.99028873     -0.431640029    
   4.50000018E-02   9.98984718     -0.441450030    
   4.60000038E-02   9.98939610     -0.451260030    
   4.70000021E-02   9.98893547     -0.461070031    
   4.80000004E-02   9.98846436     -0.470880032    
   4.90000024E-02   9.98798370     -0.480690032    
   5.00000007E-02   9.98749352     -0.490500033    
   5.10000028E-02   9.98699284     -0.500310063    
   5.20000011E-02   9.98648262     -0.510120034    
   5.30000031E-02   9.98596287     -0.519930005    
   5.40000014E-02   9.98543358     -0.529739976    
   5.50000034E-02   9.98489380     -0.539549947    
   5.60000017E-02   9.98434448     -0.549359918    
   5.70000038E-02   9.98378563     -0.559169888    
   5.80000021E-02   9.98321629     -0.568979859    
   5.90000041E-02   9.98263741     -0.578789830    
   6.00000024E-02   9.98204899     -0.588599801    
   6.10000044E-02   9.98145103     -0.598409772    
   6.20000027E-02   9.98084259     -0.608219743    
   6.30000010E-02   9.98022461     -0.618029714    
   6.40000030E-02   9.97959709     -0.627839684    
   6.50000051E-02   9.97895908     -0.637649655    
   6.59999996E-02   9.97831154     -0.647459626    
   6.70000017E-02   9.97765446     -0.657269597    
   6.80000037E-02   9.97698784     -0.667079568    
   6.90000057E-02   9.97631073     -0.676889539    
   7.00000003E-02   9.97562408     -0.686699510    
   7.10000023E-02   9.97492790     -0.696509480    
   7.20000044E-02   9.97422123     -0.706319451    
   7.30000064E-02   9.97350502     -0.716129422    
   7.40000010E-02   9.97277927     -0.725939393    
   7.50000030E-02   9.97204399     -0.735749364    
   7.60000050E-02   9.97129822     -0.745559335    
   7.70000070E-02   9.97054291     -0.755369306    
   7.80000016E-02   9.96977806     -0.765179276    
   7.90000036E-02   9.96900272     -0.774989247    
   8.00000057E-02   9.96821785     -0.784799218    
   8.10000002E-02   9.96742344     -0.794609189    
   8.20000023E-02   9.96661949     -0.804419160    
   8.30000043E-02   9.96580505     -0.814229131    
   8.40000063E-02   9.96498108     -0.824039102    
   8.50000009E-02   9.96414757     -0.833849072    
   8.60000029E-02   9.96330357     -0.843659043    
   8.70000049E-02   9.96245003     -0.853469014    
   8.80000070E-02   9.96158695     -0.863278985    
   8.90000015E-02   9.96071339     -0.873088956    
   9.00000036E-02   9.95983028     -0.882898927    
   9.10000056E-02   9.95893764     -0.892708898    
   9.20000076E-02   9.95803547     -0.902518868    
   9.30000022E-02   9.95712280     -0.912328839    
   9.40000042E-02   9.95620060     -0.922138810    
   9.50000063E-02   9.95526886     -0.931948781    
   9.60000008E-02   9.95432663     -0.941758752    
   9.70000029E-02   9.95337486     -0.951568723    
   9.80000049E-02   9.95241356     -0.961378694    
   9.90000069E-02   9.95144272     -0.971188664    
  0.100000001       9.95046139     -0.980998635    
  0.101000004       9.94947052     -0.990808606    
  0.102000006       9.94847012      -1.00061858    
  0.103000008       9.94745922      -1.01042855    
  0.104000002       9.94643879      -1.02023852    
  0.105000004       9.94540882      -1.03004849    
  0.106000006       9.94436932      -1.03985846    
  0.107000008       9.94331932      -1.04966843    
  0.108000003       9.94225979      -1.05947840    
  0.109000005       9.94119072      -1.06928837    
  0.110000007       9.94011116      -1.07909834    
  0.111000009       9.93902206      -1.08890831    
  0.112000003       9.93792343      -1.09871829    
  0.113000005       9.93681526      -1.10852826    
  0.114000008       9.93569660      -1.11833823    
  0.115000002       9.93456841      -1.12814820    
  0.116000004       9.93343067      -1.13795817    
  0.117000006       9.93228245      -1.14776814    
  0.118000008       9.93112469      -1.15757811    
  0.119000003       9.92995739      -1.16738808    
  0.120000005       9.92878056      -1.17719805    
  0.121000007       9.92759323      -1.18700802    
  0.122000009       9.92639637      -1.19681799    
  0.123000003       9.92518997      -1.20662796    
  0.124000005       9.92397308      -1.21643794    
  0.125000000       9.92274666      -1.22624791    
  0.126000002       9.92151070      -1.23605788    
  0.127000004       9.92026520      -1.24586785    
  0.128000006       9.91900921      -1.25567782    
  0.129000008       9.91774368      -1.26548779    
  0.130000010       9.91646862      -1.27529776    
  0.131000012       9.91518307      -1.28510773    
  0.131999999       9.91388798      -1.29491770    
  0.133000001       9.91258335      -1.30472767    
  0.134000003       9.91126919      -1.31453764    
  0.135000005       9.90994453      -1.32434762    
  0.136000007       9.90861034      -1.33415759    
  0.137000009       9.90726662      -1.34396756    
  0.138000011       9.90591240      -1.35377753    
  0.139000013       9.90454865      -1.36358750    
  0.140000001       9.90317535      -1.37339747    
  0.141000003       9.90179253      -1.38320744    
  0.142000005       9.90039921      -1.39301741    
  0.143000007       9.89899635      -1.40282738    
  0.144000009       9.89758396      -1.41263735    
  0.145000011       9.89616108      -1.42244732    
  0.146000013       9.89472866      -1.43225729    
  0.147000000       9.89328671      -1.44206727    
  0.148000002       9.89183521      -1.45187724    
  0.149000004       9.89037323      -1.46168721    
  0.150000006       9.88890171      -1.47149718    
  0.151000008       9.88742065      -1.48130715    
  0.152000010       9.88592911      -1.49111712    
  0.153000012       9.88442802      -1.50092709    
  0.154000014       9.88291740      -1.51073706    
  0.155000001       9.88139725      -1.52054703    
  0.156000003       9.87986660      -1.53035700    
  0.157000005       9.87832642      -1.54016697    
  0.158000007       9.87677670      -1.54997694    
  0.159000009       9.87521648      -1.55978692    
  0.160000011       9.87364674      -1.56959689    
  0.161000013       9.87206745      -1.57940686    
  0.162000000       9.87047863      -1.58921683    
  0.163000003       9.86887932      -1.59902680    
  0.164000005       9.86727047      -1.60883677    
  0.165000007       9.86565208      -1.61864674    
  0.166000009       9.86402321      -1.62845671    
  0.167000011       9.86238480      -1.63826668    
  0.168000013       9.86073685      -1.64807665    
  0.169000015       9.85907936      -1.65788662    
  0.170000002       9.85741138      -1.66769660    
  0.171000004       9.85573387      -1.67750657    
  0.172000006       9.85404682      -1.68731654    
  0.173000008       9.85234928      -1.69712651    
  0.174000010       9.85064220      -1.70693648    
  0.175000012       9.84892559      -1.71674645    
  0.176000014       9.84719944      -1.72655642    
  0.177000001       9.84546280      -1.73636639    
  0.178000003       9.84371662      -1.74617636    
  0.179000005       9.84196091      -1.75598633    
  0.180000007       9.84019470      -1.76579630    
  0.181000009       9.83841896      -1.77560627    
  0.182000011       9.83663368      -1.78541625    
  0.183000013       9.83483887      -1.79522622    
  0.184000015       9.83303356      -1.80503619    
  0.185000002       9.83121872      -1.81484616    
  0.186000004       9.82939434      -1.82465613    
  0.187000006       9.82755947      -1.83446610    
  0.188000008       9.82571507      -1.84427607    
  0.189000010       9.82386112      -1.85408604    
  0.190000013       9.82199764      -1.86389601    
  0.191000015       9.82012367      -1.87370598    
  0.192000002       9.81824017      -1.88351595    
  0.193000004       9.81634712      -1.89332592    
  0.194000006       9.81444359      -1.90313590    
  0.195000008       9.81253052      -1.91294587    
  0.196000010       9.81060791      -1.92275584    
  0.197000012       9.80867577      -1.93256581    
  0.198000014       9.80673313      -1.94237578    
  0.199000016       9.80478096      -1.95218575    
  0.200000003       9.80281925      -1.96199572    
  0.201000005       9.80084705      -1.97180569    
  0.202000007       9.79886532      -1.98161566    
  0.203000009       9.79687405      -1.99142563    
  0.204000011       9.79487324      -2.00123572    
  0.205000013       9.79286194      -2.01104569    
  0.206000015       9.79084110      -2.02085567    
  0.207000017       9.78881073      -2.03066564    
  0.208000004       9.78676987      -2.04047561    
  0.209000006       9.78471947      -2.05028558    
  0.210000008       9.78265953      -2.06009555    
  0.211000010       9.78059006      -2.06990552    
  0.212000012       9.77851009      -2.07971549    
  0.213000014       9.77642059      -2.08952546    
  0.214000016       9.77432156      -2.09933543    
  0.215000004       9.77221203      -2.10914540    
  0.216000006       9.77009296      -2.11895537    
  0.217000008       9.76796436      -2.12876534    
  0.218000010       9.76582623      -2.13857532    
  0.219000012       9.76367760      -2.14838529    
  0.220000014       9.76151943      -2.15819526    
  0.221000016       9.75935173      -2.16800523    
  0.222000018       9.75717354      -2.17781520    
  0.223000005       9.75498581      -2.18762517    
  0.224000007       9.75278854      -2.19743514    
  0.225000009       9.75058174      -2.20724511    
  0.226000011       9.74836445      -2.21705508    
  0.227000013       9.74613762      -2.22686505    
  0.228000015       9.74390125      -2.23667502    
  0.229000017       9.74165440      -2.24648499    
  0.230000004       9.73939800      -2.25629497    
  0.231000006       9.73713207      -2.26610494    
  0.232000008       9.73485661      -2.27591491    
  0.233000010       9.73257065      -2.28572488    
  0.234000012       9.73027515      -2.29553485    
  0.235000014       9.72797012      -2.30534482    
  0.236000016       9.72565460      -2.31515479    
  0.237000018       9.72332954      -2.32496476    
  0.238000005       9.72099495      -2.33477473    
  0.239000008       9.71865082      -2.34458470    
  0.240000010       9.71629620      -2.35439467    
  0.241000012       9.71393204      -2.36420465    
  0.242000014       9.71155834      -2.37401462    
  0.243000016       9.70917416      -2.38382459    
  0.244000018       9.70678043      -2.39363456    
  0.245000005       9.70437717      -2.40344453    
  0.246000007       9.70196438      -2.41325450    
  0.247000009       9.69954109      -2.42306447    
  0.248000011       9.69710827      -2.43287444    
  0.249000013       9.69466591      -2.44268441    
  0.250000000       9.69221306      -2.45249438    
  0.251000017       9.68975067      -2.46230435    
  0.252000004       9.68727875      -2.47211432    
  0.253000021       9.68479729      -2.48192430    
  0.254000008       9.68230534      -2.49173427    
  0.255000025       9.67980385      -2.50154424    
  0.256000012       9.67729282      -2.51135421    
  0.256999999       9.67477131      -2.52116418    
  0.258000016       9.67224026      -2.53097415    
  0.259000003       9.66969967      -2.54078412    
  0.260000020       9.66714954      -2.55059409    
  0.261000007       9.66458893      -2.56040406    
  0.262000024       9.66201878      -2.57021403    
  0.263000011       9.65943909      -2.58002400    
  0.263999999       9.65684891      -2.58983397    
  0.265000015       9.65424919      -2.59964395    
  0.266000003       9.65163994      -2.60945392    
  0.267000020       9.64902115      -2.61926389    
  0.268000007       9.64639187      -2.62907386    
  0.269000024       9.64375305      -2.63888383    
  0.270000011       9.64110470      -2.64869380    
  0.271000028       9.63844585      -2.65850377    
  0.272000015       9.63577747      -2.66831374    
  0.273000002       9.63309956      -2.67812371    
  0.274000019       9.63041115      -2.68793368    
  0.275000006       9.62771320      -2.69774365    
  0.276000023       9.62500572      -2.70755363    
  0.277000010       9.62228870      -2.71736360    
  0.278000027       9.61956120      -2.72717357    
  0.279000014       9.61682415      -2.73698354    
  0.280000001       9.61407757      -2.74679351    
  0.281000018       9.61132050      -2.75660348    
  0.282000005       9.60855389      -2.76641345    
  0.283000022       9.60577774      -2.77622342    
  0.284000009       9.60299206      -2.78603339    
  0.285000026       9.60019588      -2.79584336    
  0.286000013       9.59739017      -2.80565333    
  0.287000000       9.59457493      -2.81546330    
  0.288000017       9.59174919      -2.82527328    
  0.289000005       9.58891392      -2.83508325    
  0.290000021       9.58606911      -2.84489322    
  0.291000009       9.58321476      -2.85470319    
  0.292000026       9.58034992      -2.86451316    
  0.293000013       9.57747555      -2.87432313    
  0.294000000       9.57459164      -2.88413310    
  0.295000017       9.57169724      -2.89394307    
  0.296000004       9.56879330      -2.90375304    
  0.297000021       9.56587982      -2.91356301    
  0.298000008       9.56295681      -2.92337298    
  0.299000025       9.56002331      -2.93318295    
  0.300000012       9.55708027      -2.94299293    
  0.301000029       9.55412769      -2.95280290    
  0.302000016       9.55116463      -2.96261287    
  0.303000003       9.54819202      -2.97242284    
  0.304000020       9.54520988      -2.98223281    
  0.305000007       9.54221821      -2.99204278    
  0.306000024       9.53921604      -3.00185275    
  0.307000011       9.53620434      -3.01166272    
  0.308000028       9.53318310      -3.02147269    
  0.309000015       9.53015137      -3.03128266    
  0.310000002       9.52711010      -3.04109263    
  0.311000019       9.52405930      -3.05090261    
  0.312000006       9.52099895      -3.06071258    
  0.313000023       9.51792812      -3.07052255    
  0.314000010       9.51484776      -3.08033252    
  0.315000027       9.51175785      -3.09014249    
  0.316000015       9.50865746      -3.09995246    
  0.317000002       9.50554752      -3.10976243    
  0.318000019       9.50242805      -3.11957240    
  0.319000006       9.49929905      -3.12938237    
  0.320000023       9.49615955      -3.13919234    
  0.321000010       9.49301052      -3.14900231    
  0.322000027       9.48985195      -3.15881228    
  0.323000014       9.48668289      -3.16862226    
  0.324000001       9.48350430      -3.17843223    
  0.325000018       9.48031616      -3.18824220    
  0.326000005       9.47711849      -3.19805217    
  0.327000022       9.47391033      -3.20786214    
  0.328000009       9.47069263      -3.21767211    
  0.329000026       9.46746540      -3.22748208    
  0.330000013       9.46422768      -3.23729205    
  0.331000030       9.46098042      -3.24710202    
  0.332000017       9.45772362      -3.25691199    
  0.333000004       9.45445728      -3.26672196    
  0.334000021       9.45118046      -3.27653193    
  0.335000008       9.44789410      -3.28634191    
  0.336000025       9.44459820      -3.29615188    
  0.337000012       9.44129181      -3.30596185    
  0.338000029       9.43797588      -3.31577182    
  0.339000016       9.43465042      -3.32558179    
  0.340000004       9.43131542      -3.33539176    
  0.341000021       9.42796993      -3.34520173    
  0.342000008       9.42461491      -3.35501170    
  0.343000025       9.42125034      -3.36482167    
  0.344000012       9.41787529      -3.37463164    
  0.345000029       9.41449070      -3.38444161    
  0.346000016       9.41109657      -3.39425159    
  0.347000003       9.40769291      -3.40406156    
  0.348000020       9.40427876      -3.41387153    
  0.349000007       9.40085506      -3.42368150    
  0.350000024       9.39742184      -3.43349147    
  0.351000011       9.39397812      -3.44330144    
  0.352000028       9.39052486      -3.45311141    
  0.353000015       9.38706207      -3.46292138    
  0.354000002       9.38358974      -3.47273135    
  0.355000019       9.38010693      -3.48254132    
  0.356000006       9.37661457      -3.49235129    
  0.357000023       9.37311268      -3.50216126    
  0.358000010       9.36960030      -3.51197124    
  0.359000027       9.36607838      -3.52178121    
  0.360000014       9.36254692      -3.53159118    
  0.361000031       9.35900593      -3.54140115    
  0.362000018       9.35545444      -3.55121112    
  0.363000005       9.35189342      -3.56102109    
  0.364000022       9.34832287      -3.57083106    
  0.365000010       9.34474182      -3.58064103    
  0.366000026       9.34115124      -3.59045100    
  0.367000014       9.33755112      -3.60026097    
  0.368000031       9.33394146      -3.61007094    
  0.369000018       9.33032131      -3.61988091    
  0.370000005       9.32669163      -3.62969089    
  0.371000022       9.32305241      -3.63950086    
  0.372000009       9.31940269      -3.64931083    
  0.373000026       9.31574345      -3.65912080    
  0.374000013       9.31207466      -3.66893077    
  0.375000030       9.30839634      -3.67874074    
  0.376000017       9.30470753      -3.68855071    
  0.377000004       9.30100918      -3.69836068    
  0.378000021       9.29730129      -3.70817065    
  0.379000008       9.29358292      -3.71798062    
  0.380000025       9.28985500      -3.72779059    
  0.381000012       9.28611755      -3.73760056    
  0.382000029       9.28237057      -3.74741054    
